# Pulseq sequence file
# Created by PyPulseq

[VERSION]
major 1
minor 4
revision 2

[DEFINITIONS]
AdcRasterTime 1e-07 
BlockDurationRaster 1e-05 
GradientRasterTime 1e-05 
RadiofrequencyRasterTime 1e-06 
TotalDuration 0.00166 

# Format of blocks:
# NUM DUR RF  GX  GY  GZ  ADC  EXT
[BLOCKS]
1 166   0   1   2   0  1  0

# Format of arbitrary gradients:
#   time_shape_id of 0 means default timing (stepping with grad_raster starting at 1/2 of grad_raster)
# id amplitude amp_shape_id time_shape_id delay
# ..      Hz/m       ..         ..          us
[GRADIENTS]
1       842704 1 0 20
2       898839 2 0 20

# Format of ADC events:
# id num dwell delay freq phase
# ..  ..    ns    us   Hz   rad
[ADC]
1 1182 1400 0 0 0

# Sequence Shapes
[SHAPES]

shape_id 1
num_samples 164
0
0.019603318
0.0573098772
0.0941971008
0.107201298
0.0878474135
0.0488408641
0.00228107042
-0.0470051321
-0.0956632809
-0.141022611
-0.182387916
-0.219305307
-0.246881069
-0.264286837
-0.271756156
-0.269938275
-0.259753089
-0.241359894
-0.213186713
-0.178011275
-0.137737572
-0.0938401674
-0.0476752384
-0.000453548323
0.0485342689
0.101304215
0.152613002
0.200870847
0.245356802
0.285540619
0.321063951
0.352685271
0.38109965
0.403343534
0.419123479
0.428640386
0.432198625
0.430183751
0.42257941
0.40816282
0.387949618
0.36277697
0.333329169
0.300284128
0.264309135
0.224514792
0.178450073
0.130104555
0.0807863482
0.0311601363
-0.0181779391
-0.0667014929
-0.115685666
-0.167541835
-0.217604633
-0.264800034
-0.308837646
-0.349562858
-0.386804663
-0.421512454
-0.45494749
-0.483964128
-0.508146149
-0.527575337
-0.542392745
-0.55278937
-0.559073509
-0.560895294
-0.557837454
-0.550217235
-0.538407192
-0.522795933
-0.503781521
-0.480821435
-0.452097662
-0.419865408
-0.384956199
-0.347835254
-0.308934125
-0.268665281
-0.225822556
-0.177736803
-0.128369923
-0.0787323448
-0.0291843054
0.0199632407
0.0684342167
0.117757022
0.170742745
0.223000015
0.273653749
0.322556279
0.369591691
0.414692137
0.459373349
0.506097806
0.551034359
0.593599707
0.633825951
0.671766884
0.707483413
0.742232372
0.777872352
0.811450397
0.842537545
0.871135057
0.897216623
0.920728429
0.942265793
0.962375661
0.978788948
0.990866565
0.998158216
1
0.994741356
0.980319256
0.957178444
0.93044638
0.904813417
0.878881992
0.849488764
0.818553948
0.786471792
0.753849977
0.724094777
0.695273484
0.665793494
0.635352528
0.603925251
0.57033656
0.532268174
0.492601284
0.451530933
0.408358165
0.364245591
0.320939556
0.277147654
0.230246203
0.184008307
0.139089193
0.0955076028
0.0533003221
0.0124729042
-0.0284093473
-0.0717334283
-0.114035106
-0.154777844
-0.193961643
-0.23161149
-0.267757924
-0.303687801
-0.341463973
-0.378086558
-0.413084264
-0.446514701
-0.478410493
-0.508824042
-0.538846468
-0.57018733
-0.600332958
-0.628928323
-0.656042487
-0.67814042

shape_id 2
num_samples 164
0
0.00129939939
0.00923939155
0.0320675493
0.0704376787
0.11256906
0.143889503
0.162887366
0.169794959
0.165270861
0.150616168
0.1263769
0.0913313798
0.0497805598
0.00463338348
-0.0419249795
-0.0880567166
-0.132287864
-0.174899382
-0.216757792
-0.253214032
-0.283176525
-0.306391781
-0.322854461
-0.332757984
-0.336351351
-0.332834142
-0.322247334
-0.305367715
-0.282995788
-0.255954991
-0.225066811
-0.189738948
-0.147840323
-0.10316138
-0.0571436868
-0.0106198744
0.0356732479
0.0810901388
0.126684277
0.174493967
0.220047108
0.262265818
0.30079475
0.335386699
0.3658935
0.393087914
0.417691113
0.43723479
0.451496882
0.460652103
0.464939675
0.464650987
0.459787585
0.449369767
0.434045029
0.414420842
0.391050302
0.364542101
0.335352657
0.302565149
0.263952963
0.222730384
0.179947638
0.136135083
0.0917778537
0.0473150401
0.0014848432
-0.0482334075
-0.0975547022
-0.145455415
-0.191608464
-0.235740047
-0.277634604
-0.318532948
-0.360377316
-0.399478052
-0.435197828
-0.467487514
-0.496345524
-0.521818792
-0.544701516
-0.56579806
-0.58316264
-0.596682609
-0.606547972
-0.612972986
-0.616189509
-0.61634276
-0.612989946
-0.606272279
-0.596531646
-0.584072921
-0.569197972
-0.552194589
-0.53256902
-0.508860334
-0.482931136
-0.455368399
-0.426444948
-0.396404002
-0.365468277
-0.332610082
-0.29565299
-0.257476398
-0.218703558
-0.179454696
-0.13983621
-0.0999398547
-0.0583209705
-0.0122340537
0.0347411334
0.0818347567
0.128769923
0.175112258
0.219995617
0.263801176
0.308553897
0.351086919
0.392613235
0.432764032
0.470118893
0.50529375
0.540403532
0.579580811
0.620417171
0.660720569
0.699403443
0.736191259
0.770976318
0.804878841
0.839632786
0.872212645
0.901029311
0.923282661
0.939818258
0.953643958
0.9656799
0.976426914
0.984997748
0.991454383
0.995990256
0.998783102
1
0.999741816
0.997813651
0.994333453
0.989480829
0.9834061
0.976236164
0.968104748
0.958763918
0.947504359
0.935190588
0.92208616
0.908294217
0.893922783
0.879068169
0.86321726
0.845318449
0.826753923
0.807847755
0.788676082
0.768341523


[SIGNATURE]
# This is the hash of the Pulseq file, calculated right before the [SIGNATURE] section was added
# It can be reproduced/verified with md5sum if the file trimmed to the position right above [SIGNATURE]
# The new line character preceding [SIGNATURE] BELONGS to the signature (and needs to be stripped away for recalculating/verification)
Type md5
Hash a1812bcfcc8763acdf419841488b6a11
